# FINAL TIMESERIES OF TrES-3 b
# BJD_TDB,Orbital Phase,Flux,Uncertainty,Model,Airmass
2457862.746874366, -0.061402355057566554, 1.0050543617026242, 0.017847742287461672, 1.0, 0.8476397450036975
2457862.7486237567, -0.06006304329992779, 0.9942570930994485, 0.017845258962641247, 1.0, 0.8525961863285255
2457862.7507065637, -0.05846847219458562, 1.0033231558598394, 0.017842418980320268, 1.0, 0.8583008646671333
2457862.7527900888, -0.05687335135933316, 1.023194978527724, 0.01783970495644139, 1.0, 0.8637890512537415
2457862.754874285, -0.055277716801123034, 1.0259287109260282, 0.017837104427537213, 1.0, 0.8690814429755833
2457862.7569575435, -0.05368279988643393, 1.0054841174935263, 0.017834615156534783, 1.0, 0.8741785129852103
2457862.7590406286, -0.05208801594791637, 0.9821987805207834, 0.01783223045943898, 1.0, 0.8790901629190903
2457862.761124408, -0.050492700461217066, 0.9870796818793683, 0.017829940164624778, 1.0, 0.8838339778781121
2457862.763208384, -0.04889723417312214, 0.9889521576864054, 0.017827742946819134, 1.0, 0.8884096404700471
2457862.765291307, -0.04730257429816412, 0.97990569821496, 0.01782563353071337, 1.0, 0.8928252783522906
2457862.7673744964, -0.045707710502642745, 1.0087282510967397, 0.017823603497790188, 1.0, 0.8970959628347033
2457862.7694577314, -0.04411281176968221, 0.9661511158171353, 0.017821655543387056, 1.0, 0.9012136397087901
2457862.771541303, -0.042517655283981604, 0.9855680606782673, 0.01781977852262412, 1.0, 0.9051996817630061
2457862.7736245845, -0.04092272090057292, 1.023345581682897, 0.017817972053443053, 1.0, 0.9090529472098318
2457862.7757077855, -0.03932784819243951, 0.9917130797504877, 0.017816232489579264, 1.0, 0.9127793745121235
2457862.777790778, -0.037733135198313755, 1.0107808306158395, 0.017814553535784414, 1.0, 0.9163907981398798
2457862.7798756915, -0.036136951266697775, 1.0274103333754225, 0.017812937932339824, 1.0, 0.9198797680429199
2457862.7819589386, -0.03454204326462071, 1.0134402055261695, 0.017811379709555684, 1.0, 0.9232577069130001
2457862.78404112, -0.03294795094479708, 1.0038024146374154, 0.017809873515351304, 1.0, 0.9265349293262014
2457862.7861245642, -0.03135289214132439, 1.0091483168181503, 0.017808422036320243, 1.0, 0.9297043706871457
2457862.788206978, -0.029758622282269, 0.9911070819151432, 0.017807017757430495, 1.0, 0.9327813115570944
2457862.7902884074, -0.02816510571718281, 0.9887988555618417, 0.01780566098508252, 1.0, 0.9357640637144788
2457862.7923713187, -0.026570454754836825, 0.9664364226231372, 0.017804351817657185, 1.0, 0.9386514183386273
2457862.794454797, -0.02497536957003249, 1.0091192004710345, 0.017803083684433566, 1.0, 0.9414569701677733
2457862.7965355786, -0.023382349259184393, 0.991011940834675, 0.017801865373037514, 0.9998645187118662, 0.9441603853855767
2457862.7986162673, -0.0217893998927281, 1.0219793693412624, 0.01780068012318652, 0.9984858633883672, 0.9467980654137506
2457862.800709561, -0.020186800306464997, 0.9888749337165437, 0.017799524951721116, 0.9962142995335251, 0.9493760686027118
2457862.8027901226, -0.01859394826573213, 0.9938860836125274, 0.017798414155208664, 0.99339894322952, 0.9518618183923222
2457862.8048717026, -0.01700031654969844, 0.9877575927503214, 0.017797338175084314, 0.9902462536499295, 0.9542760097317973
2457862.8069525305, -0.015407260588402194, 0.9673074274179353, 0.01779630267154287, 0.9869406692720641, 0.9566053032587942
2457862.809033624, -0.01381400141955158, 0.989124809601021, 0.01779529197228738, 0.9836356937315713, 0.9588844152518181
2457862.811126119, -0.012212013238474068, 1.0011767337946247, 0.017794308817114825, 0.9804496120776137, 0.9611067502988484
2457862.8132071206, -0.010618824301006274, 0.9751929985115558, 0.017793358740518916, 0.9775293391316393, 0.9632593246080753
2457862.815289395, -0.00902466103679081, 0.9904502089796853, 0.017792440305401804, 0.9749425850559547, 0.965344901713943
2457862.8173705232, -0.007431375130104084, 0.9804395290727267, 0.01779154765286681, 0.9727535848090603, 0.9673763624648083
2457862.8194518606, -0.005837929152905208, 0.962944043742411, 0.01779068720275323, 0.9709954470265812, 0.9693386814188566
2457862.821532966, -0.004244660714938064, 0.9445548448552168, 0.017789847593156844, 0.9696790512639307, 0.971257400868417
2457862.8236260857, -0.0026421944613509996, 0.9825374513528539, 0.017789028330869552, 0.968792201668699, 0.973133370068982
2457862.825707411, -0.0010487577532686254, 0.989714522991239, 0.01778823689074668, 0.9683277810041219, 0.9749491544401415
2457862.827788493, 0.0005444928594744436, 0.960355714027829, 0.01778746951647901, 0.9682651211555999, 0.9767130374503586
2457862.8298696913, 0.002137832241833393, 0.9616579083292653, 0.017786729060737198, 0.9686018758501312, 0.9784181432002159
2457862.831950889, 0.0037311712676878495, 0.9677752216717169, 0.017786005882054628, 0.9693494032194186, 0.980086405693297
2457862.834044136, 0.005333735203502832, 0.9543528233861541, 0.01778529962635463, 0.9705333991438017, 0.981718440478327
2457862.836124663, 0.0069265605063995594, 0.9749194073461444, 0.01778461791692008, 0.9721518835454792, 0.9832963922760719
2457862.838217134, 0.008528530505748533, 0.9598300095034982, 0.01778395198106932, 0.9742198989385554, 0.9848403404446384
2457862.8402870237, 0.010113212176776909, 0.9858904798455943, 0.017783315451788115, 0.976673327475272, 0.9863184307158191
2457862.8423684994, 0.011706764035806727, 0.9729644287137214, 0.017782690161745468, 0.9794967106659103, 0.9877726338328777
2457862.8444613875, 0.013309053106666524, 0.9849454545137094, 0.017782079169763255, 0.9826158554167974, 0.9891957052670877
2457862.846544159, 0.014903597117668088, 0.9837639717867678, 0.01778149007174635, 0.9858941774762818, 0.990569770791403
2457862.8486251254, 0.016496758960795332, 0.990436999083696, 0.017780916228895376, 0.9892152553826846, 0.9919101328019674
2457862.8507058946, 0.018089770002526928, 0.9921798313469623, 0.017780360033666558, 0.9924336091741457, 0.9932110463230431
2457862.852787347, 0.01968330403633267, 1.0161470910865558, 0.017779821777388755, 0.9953772866387641, 0.9944716648336578
2457862.8548682905, 0.021276448410740334, 0.9982003659252007, 0.01777929644813102, 0.9978396535817164, 0.9957035874233993
2457862.856961803, 0.022879215554109655, 0.9915994638630639, 0.01777878295582138, 0.9995559126372033, 0.9969092619039879
2457862.8590432326, 0.024472732119195872, 1.000068996887465, 0.017778286889476514, 1.0, 0.9980754399626774
2457862.8611243377, 0.026066000200658523, 1.0127057649302578, 0.017777805197211317, 1.0, 0.9992091633473386
2457862.863205848, 0.027659578441020016, 1.0271266264919923, 0.01777733746105269, 1.0, 1.0003113010906908
2457862.86528693, 0.029252829053763085, 1.0064312037331882, 0.01777688478613484, 1.0, 1.0013791349029233
2457862.867368347, 0.03084633599322828, 0.9864004374112251, 0.017776443008198046, 1.0, 1.0024223887039967
2457862.8694618484, 0.03244909458049006, 1.0174414876610223, 0.01777601195766444, 1.0, 1.0034413824909114
2457862.8715551184, 0.03405167598502462, 1.0041791614407287, 0.017775593535747834, 1.0, 1.0044315369335106
2457862.873624996, 0.03563634838693647, 1.0142191316957125, 0.017775191410727666, 1.0, 1.0053840690549576
2457862.8757065176, 0.03722993553990994, 0.9894121341287703, 0.017774799068127848, 1.0, 1.0063143205163043
2457862.8777876915, 0.03882325638403589, 0.9853414755353671, 0.017774420154557016, 1.0, 1.0072135680603806
2457862.8798690746, 0.040416737298673955, 0.9938127873133668, 0.01777404993322544, 1.0, 1.008092981623718
2457862.881961696, 0.04201882209246588, 0.9934409439995215, 0.017773689531147083, 1.0, 1.0089498259677478
2457862.8840432405, 0.04361242671415899, 0.9828731435927409, 0.017773341659068125, 1.0, 1.0097775878822577
2457862.8861359195, 0.045214555714506666, 0.995301865324144, 0.017773001997482805, 1.0, 1.0105864838256773
2457862.8882052535, 0.0467988120756887, 0.9808938569720516, 0.01777267861199005, 1.0, 1.0113572351642028
2457862.8902862193, 0.04839197356231145, 0.948564538162595, 0.01777236180758639, 1.0, 1.012112884873596
2457862.8923788057, 0.049994031618267265, 0.963615466500085, 0.01777205267240654, 1.0, 1.012850799014443
2457862.8944594013, 0.05158690968382729, 0.9699916075950062, 0.017771755118739033, 1.0, 1.0135615880442816
2457862.896540089, 0.05317985833727468, 0.9943551791509799, 0.017771468751262627, 1.0, 1.014246138051079
2457862.8986218073, 0.05477359593513931, 0.994405974838261, 0.017771189959140298, 1.0, 1.0149130342364978
2457862.9007141157, 0.05637544115791976, 0.9562133718272483, 0.01777091868999785, 1.0, 1.0155623657318957
2457862.9027934265, 0.057967335627615635, 1.0052241846679333, 0.017770657921793064, 1.0, 1.0161869623178685
2457862.9048723434, 0.05955892849452027, 0.9727495196700999, 0.017770407309488555, 1.0, 1.016787603947681
2457862.9069630546, 0.06115955090692954, 1.001864212177321, 0.017770162881180523, 1.0, 1.0173737745712474
2457862.9090424925, 0.06275154270234884, 1.034043866131045, 0.017769927814543757, 1.0, 1.0179378210657668
2457862.911121838, 0.06434346355337633, 1.0139275295860668, 0.017769702593574153, 1.0, 1.0184785430556027
2457862.913213, 0.0659444314186281, 1.0119876347186403, 0.01776948323318528, 1.0, 1.0190054773705497
2457862.9152920907, 0.06753615726170425, 0.9945053887345094, 0.017769272959114416, 1.0, 1.0195108471059549
2457862.917373959, 0.06913000965401189, 1.0029697579638202, 0.017769071489758797, 1.0, 1.0199952964381003
2457862.9194648555, 0.07073077395520483, 1.0005265075621732, 0.01776887593877957, 1.0, 1.0204657399677108
2457862.921543691, 0.07232230443382515, 1.0126416608859368, 0.017768689170795885, 1.0, 1.0209152613662371
2457862.9236227814, 0.07391403027690135, 0.9897163582932941, 0.017768511198602167, 1.0, 1.0213438013167004
2457862.925713805, 0.07551489190381766, 1.030157881314038, 0.017768338502555433, 1.0, 1.0217598128810856
2457862.9277938674, 0.07710736177174649, 1.019752227547851, 0.017768174237892863, 1.0, 1.0221556748809342
2457862.9298733165, 0.07869936212327333, 1.0076703297054692, 0.01776801810745339, 1.0, 1.0225320797461197
2457862.931964861, 0.0803006226787043, 1.014248837432228, 0.017767867505169985, 1.0, 1.0228952916042295
2457862.934043523, 0.0818920201811531, 1.0174767992138731, 0.01776772491755822, 1.0, 1.0232392959858765
2457862.9361233544, 0.08348431322285915, 1.0219753446597553, 0.0177675900427928, 1.0, 1.023564801503114
2457862.938204366, 0.08507750964692107, 1.0254529958464456, 0.017767461460095002, 1.0, 1.0238752205178023
2457862.9402959794, 0.08667882296501528, 0.9976998359761363, 0.01776733904231519, 1.0, 1.0241708460105452
2457862.942375116, 0.08827058410203514, 0.994640081602998, 0.01776722472596533, 1.0, 1.024446986349471
2457862.944465537, 0.08987098441215252, 1.008941787870033, 0.01776711594123221, 1.0, 1.0247098354103168
2457862.946544072, 0.09146228494538239, 0.9805199029495397, 0.017767014660507265, 1.0, 1.0249546151229298
2457862.948623023, 0.09305390383711415, 1.0159089978452172, 0.017766920497351173, 1.0, 1.0251822464867149
2457862.950713236, 0.09465414478972833, 1.0037488202318854, 0.01776683190102022, 1.0, 1.0253964677889962
2457862.952793819, 0.09624701322966739, 0.9978315701760103, 0.017766750297128275, 1.0, 1.0255938222875414
2457862.954884495, 0.09784760890424055, 1.0137698562923265, 0.017766675263012982, 1.0, 1.0257753224648514
2457862.956964511, 0.09944004312172122, 1.0046336041221315, 0.017766606681832102, 1.0, 1.0259412423917218
